time (s), thrust (N)
0.0, 0
0.1, 200
0.2, 400
0.3, 600
0.4, 800
0.5, 1000
0.6, 1200
0.7, 1400
0.8, 1500
0.9, 1450
1.0, 1400
1.1, 1300
1.2, 1200
1.3, 1100
1.4, 1000
1.5, 900
1.6, 800
1.7, 700
1.8, 600
1.9, 500
2.0, 400
2.1, 300
2.2, 200
2.3, 100
2.4, 50
2.5, 0